Time,RPM1,RPM2,RPM3,RPM4,RPM5,RPM6,P,Q,R,Phi,Theta,Psi,Class
1,6050.968065,6024.227099,6048.647199,6073.067299,6099.808266,6075.388165,0.013328377,-0.129813865,0.025904359,-0.47354749,0.127105628,0.139329692,0
2,6034.299296,6030.97298,6060.354524,6089.736068,6093.062385,6063.68084,0.036549537,-0.122036699,0.02618571,-0.473205175,0.126100305,0.140143563,0
3,6019.609316,6036.887164,6070.656606,6104.426048,6087.148201,6053.378759,0.070700668,-0.110248996,0.026712409,-0.472580611,0.125183983,0.140915374,0
4,6006.654162,6042.07219,6079.726696,6117.381202,6081.963175,6044.308668,0.11410152,-0.095027584,0.027446216,-0.471574704,0.124390615,0.141629937,0
5,5995.219947,6046.617956,6087.716687,6128.815417,6077.417408,6036.318678,0.165160632,-0.076915576,0.028350874,-0.470104389,0.123749027,0.142274444,0
6,5985.119156,6050.603277,6094.759743,6138.916209,6073.432088,6029.275622,0.222381658,-0.056421316,0.029392261,-0.468101743,0.123283288,0.142838437,0
7,5976.187391,6054.097249,6100.972611,6147.847974,6069.938116,6023.062753,0.284368078,-0.034017795,0.030538523,-0.465513037,0.123013083,0.143313758,0
8,5968.280523,6057.16045,6106.457646,6155.754842,6066.874914,6017.577718,0.349826435,-0.010142483,0.031760155,-0.462297754,0.122954072,0.14369449,0
9,5961.272193,6059.845991,6111.304581,6162.763172,6064.189374,6012.730783,0.41756821,0.014802482,0.03303005,-0.458427576,0.123118245,0.143976862,0
10,5955.05162,6062.200432,6115.592088,6168.983744,6061.834933,6008.443276,0.486510472,0.040449796,0.034323527,-0.453885353,0.123514251,0.144159139,0
11,5949.521684,6064.264595,6119.389138,6174.513681,6059.77077,6004.646227,0.555675431,0.066466238,0.03561832,-0.448664072,0.124147718,0.144241485,0
12,5944.597234,6066.074268,6122.756199,6179.438131,6057.961096,6001.279165,0.624189013,0.0925517,0.036894551,-0.442765831,0.125021541,0.144225805,0
13,5940.203621,6067.660827,6125.746285,6183.831743,6056.374537,5998.289079,0.691278578,0.118438049,0.038134679,-0.43620083,0.126136157,0.144115571,0
14,5936.275399,6069.05178,6128.405873,6187.759966,6054.983584,5995.629491,0.756269883,0.143887839,0.03932343,-0.428986382,0.1274898,0.143915633,0
15,5932.755188,6070.271243,6130.77571,6191.280176,6053.764121,5993.259655,0.818583414,0.168692931,0.040447713,-0.421145961,0.12907873,0.143632022,0
16,5929.592687,6071.340359,6132.891518,6194.442677,6052.695005,5991.143846,0.877730162,0.192673018,0.041496523,-0.412708282,0.130897455,0.14327175,0
17,5926.743793,6072.277664,6134.784618,6197.291572,6051.7577,5989.250746,0.933306962,0.215674097,0.042460835,-0.40370643,0.132938935,0.14284261,0
18,5924.169841,6073.099409,6136.482466,6199.865524,6050.935955,5987.552898,0.98499146,0.237566905,0.04333348,-0.394177035,0.135194769,0.142352973,0
19,5921.836934,6073.819841,6138.009136,6202.198431,6050.215523,5986.026228,1.032536806,0.258245325,0.04410903,-0.384159492,0.137655375,0.141811607,0
20,5919.715353,6074.451452,6139.385732,6204.320011,6049.583913,5984.649633,1.075766144,0.277624792,0.044783664,-0.373695248,0.140310164,0.141227488,0
21,5917.779045,6075.005191,6140.630755,6206.25632,6049.030173,5983.404609,1.114566964,0.2956407,0.045355037,-0.362827136,0.143147696,0.14060964,0
22,5916.005167,6075.49066,6141.760429,6208.030198,6048.544704,5982.274935,1.148885395,0.312246824,0.04582215,-0.351598768,0.146155837,0.139966984,0
23,5914.373693,6075.916276,6142.788974,6209.661672,6048.119088,5981.24639,1.178720486,0.327413765,0.046185215,-0.340053986,0.149321905,0.139308203,0
24,5912.867066,6076.289418,6143.728858,6211.168299,6047.745946,5980.306506,1.204118544,0.341127425,0.04644552,-0.328236376,0.152632808,0.138641624,0
25,5911.469894,6076.616555,6144.591013,6212.565471,6047.418809,5979.444351,1.225167567,0.353387526,0.046605307,-0.316188831,0.156075181,0.137975122,0
26,5910.168682,6076.90336,6145.385021,6213.866683,6047.132004,5978.650343,1.241991829,0.364206165,0.04666764,-0.303953174,0.159635508,0.137316041,0
27,5908.951599,6077.154805,6146.119285,6215.083765,6046.88056,5977.91608,1.254746651,0.373606428,0.046636286,-0.291569834,0.163300243,0.136671131,0
28,5907.808274,6077.375249,6146.80117,6216.227091,6046.660116,5977.234195,1.263613401,0.381621044,0.046515599,-0.279077572,0.167055918,0.136046502,0
29,5906.729612,6077.568514,6147.437134,6217.305753,6046.46685,5976.598231,1.268794742,0.388291115,0.046310409,-0.266513256,0.170889247,0.135447598,0
30,5905.707641,6077.737952,6148.032838,6218.327724,6046.297412,5976.002526,1.270510161,0.393664896,0.046025922,-0.253911682,0.17478722,0.134879179,0
31,5904.735372,6077.886501,6148.593247,6219.299993,6046.148864,5975.442118,1.268991805,0.397796641,0.045667619,-0.241305439,0.178737182,0.134345324,0
32,5903.806677,6078.016734,6149.122711,6220.228688,6046.01863,5974.912654,1.264480628,0.400745524,0.045241171,-0.228724806,0.182726913,0.13384944,0
33,5902.916184,6078.130911,6149.625046,6221.119181,6045.904453,5974.410318,1.257222856,0.402574623,0.044752355,-0.216197696,0.186744691,0.133394282,0
34,5902.059182,6078.231012,6150.103597,6221.976182,6045.804353,5973.931768,1.247466796,0.403349976,0.044206983,-0.20374962,0.190779345,0.132981984,0
35,5901.231544,6078.318771,6150.561296,6222.803821,6045.716594,5973.474069,1.235459972,0.403139715,0.043610834,-0.191403689,0.194820301,0.132614093,0
36,5900.429648,6078.39571,6151.000713,6223.605717,6045.639655,5973.034651,1.221446583,0.402013265,0.042969599,-0.179180638,0.19885762,0.132291613,0
37,5899.650321,6078.463163,6151.424103,6224.385044,6045.572201,5972.611261,1.205665294,0.400040622,0.042288827,-0.16709887,0.202882024,0.132015045,0
38,5898.89078,6078.5223,6151.833442,6225.144584,6045.513064,5972.201922,1.18834733,0.397291695,0.041573885,-0.155174524,0.206884912,0.13178444,0
39,5898.148586,6078.574146,6152.230462,6225.886778,6045.461218,5971.804902,1.169714878,0.393835728,0.040829918,-0.143421553,0.21085837,0.131599444,0
40,5897.4216,6078.6196,6152.616682,6226.613764,6045.415764,5971.418682,1.149979763,0.389740779,0.040061823,-0.131851825,0.214795178,0.131459348,0
41,5896.707948,6078.65945,6152.993434,6227.327417,6045.375914,5971.041931,1.129342399,0.385073275,0.039274225,-0.12047522,0.218688801,0.131363133,0
42,5896.005984,6078.694387,6153.361884,6228.02938,6045.340977,5970.673481,1.107990982,0.379897623,0.038471455,-0.109299752,0.222533382,0.131309523,0
43,5895.314269,6078.725017,6153.723056,6228.721095,6045.310347,5970.312308,1.086100917,0.374275883,0.037657543,-0.098331683,0.226323721,0.131297022,0
44,5894.631539,6078.75187,6154.077848,6229.403826,6045.283494,5969.957517,1.063834445,0.368267499,0.036836206,-0.087575651,0.230055264,0.131323959,0
45,5893.956685,6078.775413,6154.427046,6230.078679,6045.259952,5969.608318,1.041340465,0.361929083,0.036010849,-0.077034795,0.233724068,0.131388527,0
46,5893.288738,6078.796053,6154.77134,6230.746627,6045.239312,5969.264025,1.018754519,0.355314242,0.03518456,-0.066710882,0.237326783,0.131488819,0
47,5892.626844,6078.814148,6155.111334,6231.40852,6045.221216,5968.92403,0.996198921,0.348473463,0.034360118,-0.056604434,0.240860614,0.131622858,0
48,5891.970259,6078.830012,6155.447559,6232.065106,6045.205352,5968.587805,0.973783023,0.341454023,0.033539998,-0.046714853,0.244323297,0.131788627,0
49,5891.318327,6078.843921,6155.780479,6232.717037,6045.191444,5968.254885,0.951603576,0.33429995,0.032726381,-0.03704054,0.247713057,0.131984094,0
50,5890.670475,6078.856114,6156.110502,6233.36489,6045.17925,5967.924862,0.92974519,0.327052009,0.031921162,-0.027579017,0.251028583,0.132207236,0
51,5890.0262,6078.866805,6156.437985,6234.009165,6045.16856,5967.59738,0.908280872,0.319747724,0.031125969,-0.018327037,0.254268986,0.132456055,0
52,5889.38506,6078.876177,6156.763241,6234.650304,6045.159187,5967.272124,0.88727261,0.31242142,0.030342171,-0.009280693,0.257433768,0.132728597,0
53,5888.74667,6078.884394,6157.086544,6235.288694,6045.150971,5966.94882,0.866772017,0.305104289,0.029570896,-0.000435519,0.260522786,0.133022963,0
54,5888.11069,6078.891598,6157.408136,6235.924674,6045.143767,5966.627228,0.846820998,0.297824482,0.028813049,0.008213411,0.263536221,0.13333732,0
55,5887.476823,6078.897913,6157.728227,6236.558541,6045.137451,5966.307137,0.82745244,0.290607205,0.028069323,0.016671398,0.266474544,0.13366991,0
56,5886.844809,6078.90345,6158.047003,6237.190556,6045.131914,5965.988362,0.808690913,0.28347484,0.027340222,0.02494403,0.269338482,0.134019057,0
57,5886.214419,6078.908304,6158.364625,6237.820946,6045.12706,5965.670739,0.790553375,0.276447069,0.02662607,0.03303711,0.272128993,0.134383167,0
58,5885.585452,6078.91256,6158.681236,6238.449912,6045.122804,5965.354128,0.773049866,0.269541011,0.025927037,0.040956579,0.274847233,0.134760739,0
59,5884.957735,6078.916291,6158.996961,6239.07763,6045.119073,5965.038404,0.756184196,0.262771359,0.025243144,0.048708461,0.27749453,0.135150357,0
60,5884.331111,6078.919562,6159.311908,6239.704253,6045.115802,5964.723457,0.739954609,0.25615053,0.024574289,0.056298799,0.28007236,0.135550695,0
61,5883.705447,6078.92243,6159.626174,6240.329917,6045.112934,5964.409191,0.724354429,0.249688808,0.023920256,0.063733607,0.282582319,0.135960516,0
62,5883.080625,6078.924944,6159.939842,6240.95474,6045.11042,5964.095522,0.709372672,0.243394494,0.023280729,0.071018824,0.285026108,0.136378668,0
63,5882.45654,6078.927149,6160.252987,6241.578825,6045.108216,5963.782378,0.694994637,0.237274055,0.022655311,0.078160273,0.287405503,0.136804084,0
64,5881.833101,6078.929081,6160.565672,6242.202263,6045.106283,5963.469692,0.68120246,0.231332265,0.022043531,0.085163631,0.289722344,0.137235775,0
65,5881.210229,6078.930775,6160.877955,6242.825135,6045.104589,5963.157409,0.667975635,0.225572351,0.021444859,0.092034395,0.291978513,0.13767283,0
66,5880.587855,6078.932261,6161.189885,6243.44751,6045.103104,5962.845479,0.6552915,0.219996134,0.020858718,0.098777864,0.29417592,0.13811441,0
67,5879.965916,6078.933563,6161.501506,6244.069449,6045.101801,5962.533859,0.64312569,0.214604158,0.020284493,0.105399113,0.29631649,0.138559744,0
68,5879.344359,6078.934705,6161.812855,6244.691006,6045.10066,5962.222509,0.631452549,0.209395823,0.019721541,0.111902981,0.298402146,0.139008127,0
69,5878.723137,6078.935706,6162.123967,6245.312228,6045.099659,5961.911398,0.620245516,0.204369512,0.019169199,0.118294062,0.300434802,0.13945891,0
70,5878.102208,6078.936583,6162.43487,6245.933156,6045.098781,5961.600495,0.609477466,0.199522704,0.018626796,0.124576691,0.302416352,0.139911503,0
71,5877.481537,6078.937353,6162.74559,6246.553827,6045.098012,5961.289774,0.599121024,0.194852088,0.018093653,0.130754945,0.304348658,0.140365363,0
72,5876.861092,6078.938027,6163.05615,6247.174273,6045.097337,5960.979214,0.589148843,0.190353672,0.017569098,0.136832636,0.306233547,0.140819995,0
73,5876.240844,6078.938618,6163.366569,6247.794521,6045.096746,5960.668795,0.579533853,0.186022878,0.017052464,0.142813318,0.308072803,0.141274948,0
74,5875.62077,6078.939137,6163.676866,6248.414595,6045.096228,5960.358499,0.570249477,0.181854641,0.016543099,0.148700285,0.309868157,0.141729808,0
75,5875.000848,6078.939591,6163.987054,6249.034517,6045.095773,5960.04831,0.561269817,0.177843489,0.016040368,0.154496576,0.311621291,0.142184194,0
76,5874.381059,6078.93999,6164.297148,6249.654305,6045.095375,5959.738217,0.55256982,0.173983628,0.015543657,0.160204986,0.313333826,0.142637758,0
77,5873.761387,6078.940339,6164.607158,6250.273977,6045.095025,5959.428206,0.54412541,0.170269015,0.015052377,0.165828071,0.315007325,0.143090179,0
78,5873.141818,6078.940645,6164.917096,6250.893547,6045.094719,5959.118268,0.535913599,0.166693428,0.014565967,0.171368158,0.316643287,0.143541161,0
79,5872.522338,6078.940914,6165.22697,6251.513026,6045.094451,5958.808394,0.527912579,0.163250524,0.014083893,0.176827357,0.318243149,0.143990429,0
80,5871.902937,6078.941149,6165.536788,6252.132427,6045.094215,5958.498576,0.52010179,0.159933898,0.013605652,0.182207571,0.319808283,0.144437727,0
81,5871.283606,6078.941356,6165.846557,6252.751759,6045.094009,5958.188807,0.512461966,0.156737134,0.013130774,0.187510509,0.321339995,0.144882816,0
82,5870.664335,6078.941537,6166.156283,6253.37103,6045.093828,5957.879081,0.504975174,0.153653851,0.012658819,0.192737697,0.322839526,0.14532547,0
83,5870.045116,6078.941695,6166.465972,6253.990248,6045.093669,5957.569393,0.497624827,0.15067774,0.012189381,0.197890493,0.324308056,0.145765476,0
84,5869.425945,6078.941834,6166.775627,6254.60942,6045.09353,5957.259738,0.490395688,0.147802606,0.011722087,0.202970101,0.325746699,0.146202631,0
85,5868.806814,6078.941956,6167.085253,6255.22855,6045.093408,5956.950111,0.483273858,0.14502239,0.011256595,0.207977577,0.32715651,0.146636742,0
86,5868.187719,6078.942063,6167.394854,6255.847645,6045.093301,5956.64051,0.476246761,0.142331206,0.010792597,0.212913853,0.32853848,0.147067622,0
87,5867.568655,6078.942157,6167.704433,6256.466709,6045.093208,5956.330932,0.469303107,0.139723357,0.010329813,0.217779739,0.329893546,0.14749509,0
88,5866.949619,6078.942239,6168.013992,6257.085745,6045.093125,5956.021372,0.462432859,0.137193354,0.009867997,0.222575941,0.331222587,0.14791897,0
89,5866.330607,6078.942311,6168.323534,6257.704757,6045.093053,5955.71183,0.455627182,0.134735936,0.009406927,0.227303074,0.332526428,0.148339092,0
90,5865.711616,6078.942374,6168.633061,6258.323748,6045.09299,5955.402303,0.448878395,0.132346078,0.008946415,0.231961669,0.333805844,0.148755287,0
91,5865.092644,6078.94243,6168.942575,6258.942721,6045.092935,5955.092789,0.44217991,0.130019002,0.008486293,0.236552187,0.335061559,0.14916739,0
92,5864.473688,6078.942478,6169.252077,6259.561677,6045.092886,5954.783287,0.435526176,0.127750183,0.008026423,0.241075032,0.336294251,0.149575237,0
93,5863.854746,6078.942521,6169.56157,6260.180619,6045.092844,5954.473795,0.428912613,0.125535352,0.007566687,0.245530554,0.337504555,0.149978669,0
94,5863.235816,6078.942558,6169.871053,6260.799548,6045.092807,5954.164311,0.422335545,0.123370502,0.007106991,0.249919064,0.338693064,0.150377524,0
95,5862.616898,6078.942591,6170.180529,6261.418467,6045.092774,5953.854836,0.415792135,0.12125188,0.00664726,0.254240841,0.339860333,0.150771646,0
96,5861.997989,6078.942619,6170.489998,6262.037376,6045.092745,5953.545367,0.409280317,0.119175992,0.006187439,0.258496141,0.341006878,0.151160877,0
97,5861.379088,6078.942644,6170.79946,6262.656276,6045.09272,5953.235904,0.402798728,0.117139597,0.005727489,0.2626852,0.342133184,0.151545061,0
98,5860.760195,6078.942666,6171.108918,6263.275169,6045.092698,5952.926447,0.396346642,0.115139697,0.005267387,0.266808249,0.343239703,0.151924045,0
99,5860.141308,6078.942686,6171.418371,6263.894056,6045.092679,5952.616994,0.389923902,0.113173539,0.004807123,0.27086551,0.34432686,0.152297675,0
100,5859.522427,6078.942703,6171.72782,6264.512937,6045.092662,5952.307545,0.383530862,0.1112386,0.004346701,0.274857209,0.345395051,0.1526658,0
101,5858.903551,6078.942718,6172.037265,6265.131813,6045.092647,5951.998099,0.377168317,0.109332581,0.003886135,0.27878358,0.346444649,0.153028271,0
102,5858.28468,6078.942731,6172.346708,6265.750685,6045.092634,5951.688657,0.370837451,0.107453401,0.003425449,0.282644864,0.347476003,0.15338494,0
103,5857.665812,6078.942742,6172.656147,6266.369553,6045.092622,5951.379217,0.364539775,0.10559918,0.002964675,0.286441318,0.348489444,0.153735661,0
104,5857.046947,6078.942752,6172.965585,6266.988417,6045.092612,5951.06978,0.358277076,0.103768236,0.002503852,0.290173218,0.349485283,0.154080292,0
105,5856.428086,6078.942761,6173.27502,6267.607279,6045.092604,5950.760345,0.352051363,0.10195907,0.002043024,0.293840857,0.350463814,0.15441869,0
106,5855.809227,6078.942769,6173.584453,6268.226138,6045.092596,5950.450911,0.345864823,0.100170354,0.001582243,0.297444551,0.351425319,0.15475072,0
107,5855.19037,6078.942775,6173.893885,6268.844994,6045.092589,5950.14148,0.339719776,0.098400926,0.001121559,0.300984641,0.352370062,0.155076246,0
108,5854.571515,6078.942781,6174.203315,6269.463849,6045.092583,5949.832049,0.333618629,0.09664977,0.00066103,0.304461491,0.353298298,0.155395138,0
109,5853.952662,6078.942786,6174.512744,6270.082702,6045.092578,5949.52262,0.327563847,0.094916014,0.000200714,0.307875492,0.354210272,0.155707266,0
110,5853.333811,6078.942791,6174.822172,6270.701554,6045.092574,5949.213192,0.321557909,0.093198913,-0.000259333,0.311227061,0.355106219,0.156012508,0
111,5852.714961,6078.942795,6175.131599,6271.320404,6045.09257,5948.903765,0.315603285,0.091497839,-0.000719049,0.314516639,0.355986365,0.156310743,0
112,5852.13218,6078.90673,6175.404957,6271.903184,6045.128635,5948.630407,0.309701518,0.089812275,-0.001178399,0.317744698,0.35685093,0.156601857,0
113,5851.936958,6078.483107,6175.290756,6272.098406,6045.552258,5948.744608,0.303649645,0.088141846,-0.001641971,0.320911035,0.357700133,0.156885721,0
114,5852.135163,6077.666057,6174.783129,6271.900201,6046.369307,5949.252235,0.297052697,0.086486294,-0.002118701,0.324012054,0.358534214,0.157162135,0
115,5852.68768,6076.494696,6173.92119,6271.347684,6047.540668,5950.114174,0.289558343,0.0848454,-0.002616554,0.327040388,0.359353437,0.157430808,0
116,5853.561997,6075.001536,6172.737452,6270.473368,6049.033828,5951.297912,0.280858181,0.083218992,-0.003142495,0.32998534,0.360158092,0.157691375,0
117,5854.731289,6073.213401,6171.258738,6269.304075,6050.821963,5952.776626,0.270684462,0.081606939,-0.003702559,0.332833311,0.360948492,0.157943398,0
118,5856.173617,6071.15223,6169.506989,6267.861748,6052.883134,5954.528375,0.258806915,0.080009161,-0.004301925,0.335568193,0.361724969,0.158186376,0
119,5857.87122,6068.835784,6167.499964,6266.164144,6055.19958,5956.5354,0.245029679,0.078425623,-0.004944981,0.338171727,0.362487875,0.158419753,0
120,5859.809901,6066.278261,6165.251862,6264.225463,6057.757104,5958.783502,0.229188365,0.07685634,-0.005635392,0.340623838,0.363237582,0.158642926,0
121,5861.978479,6063.490841,6162.773863,6262.056885,6060.544524,5961.261501,0.211147255,0.075301382,-0.006376165,0.342902938,0.363974472,0.158855246,0
122,5864.368312,6060.482166,6160.074609,6259.667052,6063.553199,5963.960756,0.190796654,0.073760878,-0.007169706,0.344986199,0.364698942,0.159056034,0
123,5866.972876,6057.25876,6157.160624,6257.062488,6066.776605,5966.874741,0.168050397,0.072235014,-0.008017878,0.346849806,0.365411399,0.159244577,0
124,5869.787388,6053.825406,6154.036691,6254.247976,6070.209958,5969.998673,0.142843527,0.070724042,-0.008922054,0.348469179,0.366112258,0.159420142,0
125,5872.808475,6050.185478,6150.706184,6251.22689,6073.849886,5973.329181,0.11513014,0.069228285,-0.009883167,0.349819178,0.366801935,0.159581974,0
126,5876.033874,6046.341237,6147.171364,6248.00149,6077.694127,5976.864001,0.084881412,0.067748136,-0.010901752,0.350874287,0.367480851,0.159729307,0
127,5879.462171,6042.294099,6143.433646,6244.573193,6081.741265,5980.601718,0.052083806,0.066284063,-0.011977993,0.351608772,0.368149424,0.159861362,0
128,5883.092555,6038.044874,6139.493842,6240.94281,6085.99049,5984.541522,0.016737459,0.064836613,-0.013111753,0.351996833,0.368808069,0.159977358,0
129,5886.924601,6033.593986,6135.352375,6237.110763,6090.441378,5988.68299,-0.021145245,0.063406413,-0.014302613,0.352012731,0.369457194,0.160076509,0
130,5890.958076,6028.941671,6131.00948,6233.077289,6095.093694,5993.025885,-0.061540926,0.061994171,-0.015549899,0.351630904,0.370097194,0.160158032,0
131,5895.192746,6024.08816,6126.465389,6228.842619,6099.947205,5997.569975,-0.104416271,0.060600676,-0.016852706,0.350826079,0.370728453,0.160221147,0
132,5899.628213,6019.033852,6121.720502,6224.407152,6105.001513,6002.314863,-0.149728922,0.059226798,-0.018209917,0.34957336,0.371351337,0.160265082,0
133,5904.263753,6013.77947,6116.775541,6219.771611,6110.255894,6007.259824,-0.197428194,0.057873486,-0.019620224,0.347848321,0.371966194,0.160289074,0
134,5909.098166,6008.326216,6111.631707,6214.937198,6115.709148,6012.403657,-0.24745562,0.056541764,-0.02108214,0.345627086,0.372573348,0.160292371,0
